EXPLAIN
TAG	CV
TITLE	LABEL	Cyclic Voltammetry	Test &Identifier
DATE	LABEL	3/6/2019	Date
TIME	LABEL	16:35:22	Time
CHECKNOTES	NOTES	1	&Notes...
	test-notes-data
CHECKPSTAT	PSTAT	potentiostat-id	Potentiostat
CHECKPOTEN	POTEN	5.00000E-001	F	Initial &E (V)
CHECKQUANT	QUANT	1.2345E+000	&Scan Rate (mV/s)
CHECKIQUANT	IQUANT	5	C&ycles (#)
CHECKSELECTOR	SELECTOR	0	I/E Range &Mode
CHECKTOGGLE	TOGGLE	F	Used for Stripping
CHECK2PARAM	TWOPARAM	T	3.00000E+002	5.00000E-001	Conditionin&g	Time(s)	E(V)
VLIMIT1	POTEN	1.00000E-001	F	Scan Limit &1 (V)
VLIMIT2	POTEN	9.00000E-001	F	Scan Limit &2 (V)
SCANRATE	QUANT	1.23456E+000	&Scan Rate (mV/s)
CONDIT	TWOPARAM	F	3.00000E+002	4.00000E-001	Conditionin&g	Time(s)	E(V)
DELAY	TWOPARAM	F	3.00000E+002	1.00000E-001	Init. De&lay	Time(s)	Stab.(mV/s)
CURVE1	TABLE
	Pt	T	Vf	Im	Vu	Sig	Ach	IERange	Over
	#	s	V vs. Ref.	A	V	V	V	#	bits
	0	0.1	4.9E-001	7.80498E-009	0.00000E+000	5.00000E-001	-1.07185E-003	5	...........
	1	0.2	4.98267E-001	5.33521E-009	0.00000E+000	4.99000E-001	-1.07255E-003	5	...........
	2	0.3	4.97266E-001	3.79513E-009	0.00000E+000	4.98000E-001	-1.08405E-003	5	...........
	3	0.4	4.96276E-001	2.55585E-009	0.00000E+000	4.97000E-001	-1.07205E-003	5	...........
	4	0.5	4.95274E-001	1.43084E-009	0.00000E+000	4.96000E-001	-1.08195E-003	5	...........
	5	0.6	4.94277E-001	5.31390E-010	0.00000E+000	4.95000E-001	-1.08425E-003	5	...........
	6	0.7	4.93266E-001	-3.10842E-010	0.00000E+000	4.94000E-001	-1.08675E-003	5	...........
	7	0.8	4.92278E-001	-1.02199E-009	0.00000E+000	4.93000E-001	-1.07365E-003	5	...........
	8	0.9	4.91287E-001	-1.75494E-009	0.00000E+000	4.92000E-001	-1.09885E-003	5	...........
	9	1	5.0E-001	-2.41658E-009	0.00000E+000	4.91000E-001	-1.06785E-003	5	...........
CURVE2	TABLE
	Pt	T	Vf	Im	Vu	Sig	Ach	IERange	Over
	#	s	V vs. Ref.	A	V	V	V	#	bits
	10	120.2	8.97987E-001	6.57772E-007	0.00000E+000	8.99000E-001	-1.08785E-003	6	...........
	11	120.3	8.97015E-001	6.40211E-007	0.00000E+000	8.98000E-001	-1.08115E-003	6	...........
	12	120.4	8.96017E-001	6.23702E-007	0.00000E+000	8.97000E-001	-1.09995E-003	6	...........
	13	120.5	8.95012E-001	6.07876E-007	0.00000E+000	8.96000E-001	-1.08035E-003	6	...........
	14	120.6	8.93996E-001	5.92887E-007	0.00000E+000	8.95000E-001	-1.09225E-003	6	...........
	15	120.7	8.93013E-001	5.78426E-007	0.00000E+000	8.94000E-001	-1.08555E-003	6	...........
	16	120.8	8.92005E-001	5.64491E-007	0.00000E+000	8.93000E-001	-1.08395E-003	6	...........
	17	120.9	8.91041E-001	5.51307E-007	0.00000E+000	8.92000E-001	-1.07685E-003	6	...........
	18	121	8.90015E-001	5.38367E-007	0.00000E+000	8.91000E-001	-1.08545E-003	6	...........
	19	121.1	8.89031E-001	5.25977E-007	0.00000E+000	8.90000E-001	-1.07845E-003	6	...........
CURVE3	TABLE
	Pt	T	Vf	Im	Vu	Sig	Ach	IERange	Over
	#	s	V vs. Ref.	A	V	V	V	#	bits
	20	280.2	8.97846E-001	4.74862E-007	0.00000E+000	8.99000E-001	-1.08665E-003	5	...........
	21	280.3	8.96833E-001	4.60070E-007	0.00000E+000	8.98000E-001	-1.08555E-003	5	...........
	22	280.4	8.95861E-001	4.46735E-007	0.00000E+000	8.97000E-001	-1.08645E-003	5	...........
	23	280.5	8.94852E-001	4.34115E-007	0.00000E+000	8.96000E-001	-1.09015E-003	5	...........
	24	280.6	8.93880E-001	4.22256E-007	0.00000E+000	8.95000E-001	-1.08125E-003	5	...........
	25	280.7	8.92892E-001	4.10826E-007	0.00000E+000	8.94000E-001	-1.10415E-003	5	...........
	26	280.8	8.91898E-001	4.00024E-007	0.00000E+000	8.93000E-001	-1.07575E-003	5	...........
	27	280.9	8.90896E-001	3.89569E-007	0.00000E+000	8.92000E-001	-1.09685E-003	5	...........
	28	281	8.89907E-001	3.79479E-007	0.00000E+000	8.91000E-001	-1.07875E-003	5	...........
	29	281.1	8.88906E-001	3.69861E-007	0.00000E+000	8.90000E-001	-1.08505E-003	5	...........
CURVE4	TABLE
	Pt	T	Vf	Im	Vu	Sig	Ach	IERange	Over
	#	s	V vs. Ref.	A	V	V	V	#	bits
	30	440.2	8.97891E-001	3.98725E-007	0.00000E+000	8.99000E-001	-1.07875E-003	5	...........
	31	440.3	8.96907E-001	3.84380E-007	0.00000E+000	8.98000E-001	-1.08125E-003	5	...........
	32	440.4	8.95912E-001	3.72133E-007	0.00000E+000	8.97000E-001	-1.08165E-003	5	...........
	33	440.5	8.94920E-001	3.60922E-007	0.00000E+000	8.96000E-001	-1.09025E-003	5	...........
	34	440.6	8.93923E-001	3.50388E-007	0.00000E+000	8.95000E-001	-1.07475E-003	5	...........
	35	440.7	8.92940E-001	3.39752E-007	0.00000E+000	8.94000E-001	-1.10165E-003	5	...........
	36	440.8	8.91939E-001	3.29956E-007	0.00000E+000	8.93000E-001	-1.06645E-003	5	...........
	37	440.9	8.90949E-001	3.20646E-007	0.00000E+000	8.92000E-001	-1.08885E-003	5	...........
	38	441	8.89947E-001	3.11600E-007	0.00000E+000	8.91000E-001	-1.08115E-003	5	...........
	39	441.1	8.88960E-001	3.02352E-007	0.00000E+000	8.90000E-001	-1.08655E-003	5	...........
CURVE5	TABLE
	Pt	T	Vf	Im	Vu	Sig	Ach	IERange	Over
	#	s	V vs. Ref.	A	V	V	V	#	bits
	40	600.2	8.97929E-001	3.52667E-007	0.00000E+000	8.99000E-001	-1.08155E-003	5	...........
	41	600.3	8.96945E-001	3.38852E-007	0.00000E+000	8.98000E-001	-1.08615E-003	5	...........
	42	600.4	8.95958E-001	3.26884E-007	0.00000E+000	8.97000E-001	-1.08925E-003	5	...........
	43	600.5	8.94963E-001	3.15955E-007	0.00000E+000	8.96000E-001	-1.08635E-003	5	...........
	44	600.6	8.93950E-001	3.05753E-007	0.00000E+000	8.95000E-001	-1.07885E-003	5	...........
	45	600.7	8.92974E-001	2.96182E-007	0.00000E+000	8.94000E-001	-1.10035E-003	5	...........
	46	600.8	8.91962E-001	2.87036E-007	0.00000E+000	8.93000E-001	-1.07535E-003	5	...........
	47	600.9	8.90992E-001	2.78501E-007	0.00000E+000	8.92000E-001	-1.09475E-003	5	...........
	48	601	8.89976E-001	2.70272E-007	0.00000E+000	8.91000E-001	-1.07895E-003	5	...........
	49	601.1	8.89001E-001	2.62272E-007	0.00000E+000	8.90000E-001	-1.08005E-003	5	...........
