EXPLAIN
TAG	SQUARE_WAVE
TITLE	LABEL	test-square-wave-experiment	Test &Identifier
DATE	LABEL	12/31/2021	Date
TIME	LABEL	12:00:00	Time
PSTAT	PSTAT	REF600-10000	Potentiostat
NOTES	NOTES	1	&Notes...
	
VINIT	QUANT	0.00000E+000	Initial &E (V)
VFINAL	QUANT	-5.00000E-001	Final &E (V)
STEPSIZE	QUANT	2.00000E+000	St&ep Size (mV)
TIMERRES	QUANT	3.33340E-005	&Timer Resolution
FREQUENCY	QUANT	1.00000E+002	&Frequency (Hz)
PULSESIZE	QUANT	2.50000E+001	Pulse Size &Epeak (mV)
PULSEON	QUANT	1.00000E-002	Pulse &Time (s)
AREA	QUANT	1.00000E+000	Electrode &Area (cm^2)
IMODE	SELECTOR	1	I/E Range &Mode
IRANGE	QUANT	1.00000E-002	&Max Current (mA)
EQDELAY	IQUANT	0	Equil. &Time (s)
IRCOMP	SELECTOR	0	IRCom&p
PFCOR	QUANT	5.00000E+001	PF Corr. (ohm)
CYCLES	IQUANT	251	C&ycles (#)
ELECTRODETYPE	SELECTOR	0	Electrode Type
STRIPPING	TOGGLE	F	Used for Stripping
POLARITY	TOGGLE	F	Signal Polarity
LINEFREQ	IQUANT	60	Line Frequency (Hz)
SAMPLINGMODE	SELECTOR	0	Sampling &Mode
PSTATMODEL	IQUANT	4	Pstat Model
PSTATSECTION	LABEL	REF600-19054	Pstat Section
PSTATSERIALNO	LABEL	19054	Pstat Serial Number
CTRLMODE	IQUANT	1	Control Mode
ELECTROMETER	IQUANT	0	RE=0 or CS=1
IESTAB	IQUANT	2	I/E Stability
CASPEED	IQUANT	6	Control Amp Speed
CONVENTION	IQUANT	0	Current Convention
ICHRANGE	IQUANT	2	Ich Range
ICHRANGEMODE	TOGGLE	F	Ich Auto Range
ICHOFFSETENABLE	TOGGLE	F	Ich Offset Enable
ICHOFFSET	QUANT	0	Ich Offset (V)
ICHFILTER	IQUANT	2	Ich Filter
VCHRANGE	IQUANT	2	Vch Range
VCHRANGEMODE	TOGGLE	F	Vch Auto Range
VCHOFFSETENABLE	TOGGLE	F	Vch Offset Enable
VCHOFFSET	QUANT	0	Vch Offset (V)
VCHFILTER	IQUANT	1	Vch Filter
ACHRANGE	IQUANT	2	Ach Range
ACHOFFSETENABLE	TOGGLE	F	Ach Offset Enable
ACHOFFSET	QUANT	0	Ach Offset (V)
ACHFILTER	IQUANT	1	Ach Filter
IERANGELOWERLIMIT	IQUANT	1	I/E Range Lower Limit
IERANGEMODE	TOGGLE	F	I/E AutoRange
IERANGE	IQUANT	7	I/E Range
POSFEEDENABLE	TOGGLE	F	Positive Feedback IR Comp
POSFEEDRESISTANCE	QUANT	0	Positive Feedback Resistance (ohm)
ACHSELECT	IQUANT	4	Ach Select
SENSECABLEID	IQUANT	14	Sense Cable ID
PWRCABLEID	IQUANT	14	Power Cable ID
DCCALDATE	LABEL	9/10/2021	DC Calibration Date
ACCALDATE	LABEL	3/30/2021	AC Calibration Date
THERMOSELECT	IQUANT	1	Thermo Select
FRAMEWORKVERSION	LABEL	7.8.4	Framework Version
INSTRUMENTVERSION	LABEL	4.42	Instrument Version
CURVE	TABLE	251
	Pt	T	Vfwd	Vrev	Vstep	Ifwd	Irev	Idif	Sig	Ach	IERange	Over	Temp
	#	s	V	V	V	A	A	A	V	V	#	bits	deg C
	0	0.01	-2.55258E-002	3.75742E-002	6.02416E-003	1.95523E-007	-1.73274E-006	1.92826E-006	2.50000E-002	5.08394E-005	7	...........	-0.01
	1	0.02	-4.32258E-002	3.87742E-002	-2.22584E-003	8.75084E-008	-3.26548E-007	4.14056E-007	2.30000E-002	8.39387E-007	7	...........	-0.01
	2	0.03	-4.59258E-002	3.68742E-002	-4.52584E-003	-3.20547E-007	-8.85156E-008	-2.32032E-007	2.10000E-002	5.08394E-005	7	...........	-0.01
	3	0.04	-4.79258E-002	3.48742E-002	-6.52584E-003	-3.20547E-007	-4.65099E-008	-2.74037E-007	1.90000E-002	8.39387E-007	7	...........	-0.01
	4	0.05	-5.01258E-002	3.28742E-002	-8.62584E-003	-3.28548E-007	-4.50415E-009	-3.24044E-007	1.70000E-002	8.39387E-007	7	...........	-0.01
	5	0.06	-5.21258E-002	3.07742E-002	-1.06758E-002	-3.16547E-007	-1.45055E-008	-3.02041E-007	1.50000E-002	8.39387E-007	7	...........	-0.01
	6	0.07	-5.41258E-002	2.90742E-002	-1.25258E-002	-2.96544E-007	2.14994E-008	-3.18043E-007	1.30000E-002	8.39387E-007	7	...........	-0.01
	7	0.08	-5.59258E-002	2.66742E-002	-1.46258E-002	-3.28548E-007	3.75016E-008	-3.66050E-007	1.10000E-002	-4.91606E-005	7	...........	-0.01
	8	0.09	-5.79258E-002	2.46742E-002	-1.66258E-002	-3.08546E-007	3.95018E-008	-3.48047E-007	9.00000E-003	-4.91606E-005	7	...........	-0.01
	9	0.1	-6.00258E-002	2.26742E-002	-1.86758E-002	-3.34549E-007	6.75057E-008	-4.02055E-007	7.00000E-003	8.39387E-007	7	...........	-0.01
	10	0.11	-6.17258E-002	2.08742E-002	-2.04258E-002	-3.28548E-007	4.55027E-008	-3.74051E-007	5.00000E-003	5.08394E-005	7	...........	-0.01
	11	0.12	-6.37258E-002	1.88742E-002	-2.24258E-002	-3.32549E-007	9.95100E-008	-4.32059E-007	2.99999E-003	8.39387E-007	7	...........	-0.01
	12	0.13	-6.59258E-002	1.64742E-002	-2.47258E-002	-3.74555E-007	1.11512E-007	-4.86066E-007	9.99987E-004	8.39387E-007	7	...........	-0.01
	13	0.14	-6.78258E-002	1.48742E-002	-2.64758E-002	-3.52552E-007	1.05511E-007	-4.58062E-007	-1.00000E-003	5.08394E-005	7	...........	-0.01
	14	0.15	-6.97258E-002	1.24742E-002	-2.86258E-002	-3.90557E-007	1.49517E-007	-5.40074E-007	-3.00001E-003	5.08394E-005	7	...........	-0.01
	15	0.16	-7.17258E-002	1.06742E-002	-3.05258E-002	-4.12560E-007	1.35515E-007	-5.48075E-007	-5.00001E-003	8.39387E-007	7	...........	-0.01
	16	0.17	-7.35258E-002	8.67416E-003	-3.24258E-002	-4.04559E-007	1.71520E-007	-5.76078E-007	-7.00000E-003	-4.91606E-005	7	...........	-0.01
	17	0.18	-7.58258E-002	6.57416E-003	-3.46258E-002	-4.30562E-007	1.99524E-007	-6.30086E-007	-9.00000E-003	8.39387E-007	7	...........	-0.01
	18	0.19	-7.76258E-002	4.67416E-003	-3.64758E-002	-4.26562E-007	2.13526E-007	-6.40087E-007	-1.10000E-002	1.50839E-004	7	...........	-0.01
	19	0.2	-7.96258E-002	2.67416E-003	-3.84758E-002	-4.66567E-007	2.53531E-007	-7.20098E-007	-1.30000E-002	1.00839E-004	7	...........	-0.01
	20	0.21	-8.15258E-002	5.74157E-004	-4.04758E-002	-4.74568E-007	2.45530E-007	-7.20098E-007	-1.50000E-002	8.39387E-007	7	...........	-0.01
	21	0.22	-8.35258E-002	-1.52584E-003	-4.25258E-002	-4.74568E-007	2.91536E-007	-7.66104E-007	-1.70000E-002	-4.91606E-005	7	...........	-0.01
	22	0.23	-8.57258E-002	-3.52584E-003	-4.46258E-002	-5.04572E-007	3.13539E-007	-8.18111E-007	-1.90000E-002	5.08394E-005	7	...........	-0.01
	23	0.24	-8.75258E-002	-5.62584E-003	-4.65758E-002	-4.96571E-007	3.29541E-007	-8.26113E-007	-2.10000E-002	8.39387E-007	7	...........	-0.01
	24	0.25	-8.95258E-002	-7.52584E-003	-4.85258E-002	-5.32576E-007	3.67547E-007	-9.00123E-007	-2.30000E-002	8.39387E-007	7	...........	-0.01
	25	0.26	-9.17258E-002	-9.52584E-003	-5.06258E-002	-5.46578E-007	3.61546E-007	-9.08124E-007	-2.50000E-002	5.08394E-005	7	...........	-0.01
	26	0.27	-9.35258E-002	-1.15258E-002	-5.25258E-002	-5.56579E-007	4.11553E-007	-9.68132E-007	-2.70000E-002	5.08394E-005	7	...........	-0.01
	27	0.28	-9.55258E-002	-1.36258E-002	-5.45758E-002	-5.86583E-007	4.29555E-007	-1.01614E-006	-2.90000E-002	5.08394E-005	7	...........	-0.01
	28	0.29	-9.77258E-002	-1.55258E-002	-5.66258E-002	-5.72582E-007	4.51558E-007	-1.02414E-006	-3.10000E-002	5.08394E-005	7	...........	-0.01
	29	0.3	-9.95258E-002	-1.77258E-002	-5.86258E-002	-6.08586E-007	4.83562E-007	-1.09215E-006	-3.30000E-002	5.08394E-005	7	...........	-0.01
	30	0.31	-1.01726E-001	-1.96258E-002	-6.06758E-002	-6.04586E-007	4.97564E-007	-1.10215E-006	-3.50000E-002	1.00839E-004	7	...........	-0.01
	31	0.32	-1.03426E-001	-2.16258E-002	-6.25258E-002	-6.22588E-007	5.31569E-007	-1.15416E-006	-3.70000E-002	8.39387E-007	7	...........	-0.01
	32	0.33	-1.05526E-001	-2.37258E-002	-6.46258E-002	-6.40591E-007	5.47571E-007	-1.18816E-006	-3.90000E-002	5.08394E-005	7	...........	-0.01
	33	0.34	-1.07126E-001	-2.55258E-002	-6.63258E-002	-6.24589E-007	5.75575E-007	-1.20016E-006	-4.10000E-002	1.00839E-004	7	...........	-0.01
	34	0.35	-1.09626E-001	-2.79258E-002	-6.87758E-002	-6.54593E-007	6.19581E-007	-1.27417E-006	-4.30000E-002	-4.91606E-005	7	...........	-0.01
	35	0.36	-1.11326E-001	-2.98258E-002	-7.05758E-002	-6.58593E-007	6.07579E-007	-1.26617E-006	-4.50000E-002	-4.91606E-005	7	...........	-0.01
	36	0.37	-1.13326E-001	-3.18258E-002	-7.25758E-002	-6.56593E-007	6.57586E-007	-1.31418E-006	-4.70000E-002	8.39387E-007	7	...........	-0.01
	37	0.38	-1.15426E-001	-3.39258E-002	-7.46758E-002	-6.86597E-007	6.67587E-007	-1.35418E-006	-4.90000E-002	5.08394E-005	7	...........	-0.01
	38	0.39	-1.17126E-001	-3.55258E-002	-7.63258E-002	-6.58593E-007	6.91591E-007	-1.35018E-006	-5.10000E-002	8.39387E-007	7	...........	-0.01
	39	0.4	-1.19326E-001	-3.79258E-002	-7.86258E-002	-7.00599E-007	7.25595E-007	-1.42619E-006	-5.30000E-002	8.39387E-007	7	...........	-0.01
	40	0.41	-1.21326E-001	-3.98258E-002	-8.05758E-002	-6.94598E-007	7.29596E-007	-1.42419E-006	-5.50000E-002	8.39387E-007	7	...........	-0.01
	41	0.42	-1.23126E-001	-4.18258E-002	-8.24758E-002	-6.92598E-007	7.73602E-007	-1.46620E-006	-5.70000E-002	5.08394E-005	7	...........	-0.01
	42	0.43	-1.25226E-001	-4.38258E-002	-8.45258E-002	-7.12601E-007	7.81603E-007	-1.49420E-006	-5.90000E-002	-4.91606E-005	7	...........	-0.01
	43	0.44	-1.27126E-001	-4.59258E-002	-8.65258E-002	-6.78596E-007	7.81603E-007	-1.46020E-006	-6.10000E-002	8.39387E-007	7	...........	-0.01
	44	0.45	-1.29226E-001	-4.77258E-002	-8.84758E-002	-7.00599E-007	8.13607E-007	-1.51421E-006	-6.30000E-002	1.50839E-004	7	...........	-0.01
	45	0.46	-1.31326E-001	-4.99258E-002	-9.06258E-002	-6.96598E-007	8.17608E-007	-1.51421E-006	-6.50000E-002	8.39387E-007	7	...........	-0.01
	46	0.47	-1.33126E-001	-5.19258E-002	-9.25258E-002	-6.84597E-007	8.43611E-007	-1.52821E-006	-6.70000E-002	5.08394E-005	7	...........	-0.01
	47	0.48	-1.34926E-001	-5.38258E-002	-9.43758E-002	-6.98599E-007	8.45612E-007	-1.54421E-006	-6.90000E-002	5.08394E-005	7	...........	-0.01
	48	0.49	-1.37426E-001	-5.58258E-002	-9.66258E-002	-6.64594E-007	8.41611E-007	-1.50621E-006	-7.10000E-002	8.39387E-007	7	...........	-0.01
	49	0.5	-1.38926E-001	-5.79258E-002	-9.84258E-002	-6.68595E-007	8.67615E-007	-1.53621E-006	-7.30000E-002	5.08394E-005	7	...........	-0.01
	50	0.51	-1.41026E-001	-5.99258E-002	-1.00476E-001	-6.62594E-007	8.55613E-007	-1.51821E-006	-7.50000E-002	5.08394E-005	7	...........	-0.01
	51	0.52	-1.42926E-001	-6.19258E-002	-1.02426E-001	-6.42591E-007	8.79616E-007	-1.52221E-006	-7.70000E-002	8.39387E-007	7	...........	-0.01
	52	0.53	-1.45226E-001	-6.37258E-002	-1.04476E-001	-6.50592E-007	8.77616E-007	-1.52821E-006	-7.90000E-002	8.39387E-007	7	...........	-0.01
	53	0.54	-1.47126E-001	-6.59258E-002	-1.06526E-001	-6.26589E-007	8.75616E-007	-1.50220E-006	-8.10000E-002	-4.91606E-005	7	...........	-0.01
	54	0.55	-1.49026E-001	-6.79258E-002	-1.08476E-001	-6.14587E-007	8.89618E-007	-1.50420E-006	-8.30000E-002	-4.91606E-005	7	...........	-0.01
	55	0.56	-1.51226E-001	-7.00258E-002	-1.10626E-001	-6.02586E-007	8.69615E-007	-1.47220E-006	-8.50000E-002	5.08394E-005	7	...........	-0.01
	56	0.57	-1.52926E-001	-7.19258E-002	-1.12426E-001	-5.78582E-007	8.89618E-007	-1.46820E-006	-8.70000E-002	8.39387E-007	7	...........	-0.01
	57	0.58	-1.55126E-001	-7.39258E-002	-1.14526E-001	-5.78582E-007	8.81617E-007	-1.46020E-006	-8.90000E-002	5.08394E-005	7	...........	-0.01
	58	0.59	-1.57126E-001	-7.61258E-002	-1.16626E-001	-5.44578E-007	8.67615E-007	-1.41219E-006	-9.10000E-002	5.08394E-005	7	...........	-0.01
	59	0.6	-1.59126E-001	-7.79258E-002	-1.18526E-001	-5.44578E-007	8.71615E-007	-1.41619E-006	-9.30000E-002	-4.91606E-005	7	...........	-0.01
	60	0.61	-1.61126E-001	-7.99258E-002	-1.20526E-001	-5.20574E-007	8.53613E-007	-1.37419E-006	-9.50000E-002	8.39387E-007	7	...........	-0.01
	61	0.62	-1.62926E-001	-8.19258E-002	-1.22426E-001	-4.90570E-007	8.73616E-007	-1.36419E-006	-9.70000E-002	8.39387E-007	7	...........	-0.01
	62	0.63	-1.65126E-001	-8.40258E-002	-1.24576E-001	-4.84570E-007	8.49612E-007	-1.33418E-006	-9.90000E-002	5.08394E-005	7	...........	-0.01
	63	0.64	-1.67226E-001	-8.58258E-002	-1.26526E-001	-4.44564E-007	8.41611E-007	-1.28618E-006	-1.01000E-001	8.39387E-007	7	...........	-0.01
	64	0.65	-1.69026E-001	-8.79258E-002	-1.28476E-001	-4.38563E-007	8.49612E-007	-1.28818E-006	-1.03000E-001	8.39387E-007	7	...........	-0.01
	65	0.66	-1.70926E-001	-9.00258E-002	-1.30476E-001	-3.96558E-007	8.17608E-007	-1.21417E-006	-1.05000E-001	8.39387E-007	7	...........	-0.01
	66	0.67	-1.73026E-001	-9.19258E-002	-1.32476E-001	-3.78555E-007	8.23609E-007	-1.20216E-006	-1.07000E-001	-9.91606E-005	7	...........	-0.01
	67	0.68	-1.74726E-001	-9.39258E-002	-1.34326E-001	-3.70554E-007	8.17608E-007	-1.18816E-006	-1.09000E-001	5.08394E-005	7	...........	-0.01
	68	0.69	-1.76926E-001	-9.61258E-002	-1.36526E-001	-3.22547E-007	7.91604E-007	-1.11415E-006	-1.11000E-001	8.39387E-007	7	...........	-0.01
	69	0.7	-1.78926E-001	-9.79258E-002	-1.38426E-001	-3.22547E-007	8.05606E-007	-1.12815E-006	-1.13000E-001	8.39387E-007	7	...........	-0.01
	70	0.71	-1.80926E-001	-1.00026E-001	-1.40476E-001	-2.84542E-007	7.51599E-007	-1.03614E-006	-1.15000E-001	8.39387E-007	7	...........	-0.01
	71	0.72	-1.82926E-001	-1.01926E-001	-1.42426E-001	-2.58539E-007	7.77602E-007	-1.03614E-006	-1.17000E-001	1.00839E-004	7	...........	-0.01
	72	0.73	-1.84926E-001	-1.03926E-001	-1.44426E-001	-2.42537E-007	7.55599E-007	-9.98136E-007	-1.19000E-001	-9.91606E-005	7	...........	-0.01
	73	0.74	-1.86926E-001	-1.05926E-001	-1.46426E-001	-1.94530E-007	7.43598E-007	-9.38128E-007	-1.21000E-001	5.08394E-005	7	...........	-0.01
	74	0.75	-1.88926E-001	-1.08026E-001	-1.48476E-001	-1.88529E-007	7.37597E-007	-9.26126E-007	-1.23000E-001	8.39387E-007	7	...........	-0.01
	75	0.76	-1.90726E-001	-1.10326E-001	-1.50526E-001	-1.56525E-007	7.07593E-007	-8.64118E-007	-1.25000E-001	5.08394E-005	7	...........	-0.01
	76	0.77	-1.92926E-001	-1.11926E-001	-1.52426E-001	-1.12519E-007	7.09593E-007	-8.22112E-007	-1.27000E-001	8.39387E-007	7	...........	-0.01
	77	0.78	-1.94926E-001	-1.13926E-001	-1.54426E-001	-1.06518E-007	6.93591E-007	-8.00109E-007	-1.29000E-001	1.00839E-004	7	...........	-0.01
	78	0.79	-1.96726E-001	-1.16026E-001	-1.56376E-001	-4.85101E-008	6.55586E-007	-7.04096E-007	-1.31000E-001	-4.91606E-005	7	...........	-0.01
	79	0.8	-1.98926E-001	-1.17926E-001	-1.58426E-001	-4.25093E-008	6.79589E-007	-7.22098E-007	-1.33000E-001	-9.91606E-005	7	...........	-0.01
	80	0.81	-2.00826E-001	-1.20126E-001	-1.60476E-001	-6.50442E-009	6.35583E-007	-6.42088E-007	-1.35000E-001	5.08394E-005	7	...........	-0.01
	81	0.82	-2.02926E-001	-1.22126E-001	-1.62526E-001	4.75029E-008	6.31583E-007	-5.84080E-007	-1.37000E-001	-4.91606E-005	7	...........	-0.01
	82	0.83	-2.04726E-001	-1.24126E-001	-1.64426E-001	5.15035E-008	6.13580E-007	-5.62077E-007	-1.39000E-001	8.39387E-007	7	...........	-0.01
	83	0.84	-2.06726E-001	-1.26126E-001	-1.66426E-001	1.05511E-007	5.95578E-007	-4.90067E-007	-1.41000E-001	8.39387E-007	7	...........	-0.01
	84	0.85	-2.08926E-001	-1.27926E-001	-1.68426E-001	1.19513E-007	5.87577E-007	-4.68064E-007	-1.43000E-001	8.39387E-007	7	...........	-0.01
	85	0.86	-2.10726E-001	-1.29926E-001	-1.70326E-001	1.63519E-007	5.37570E-007	-3.74051E-007	-1.45000E-001	-9.91606E-005	7	...........	-0.01
	86	0.87	-2.12726E-001	-1.32126E-001	-1.72426E-001	2.03524E-007	5.51572E-007	-3.48047E-007	-1.47000E-001	8.39387E-007	7	...........	-0.01
	87	0.88	-2.15026E-001	-1.33926E-001	-1.74476E-001	2.19526E-007	5.19567E-007	-3.00041E-007	-1.49000E-001	8.39387E-007	7	...........	-0.01
	88	0.89	-2.16926E-001	-1.36126E-001	-1.76526E-001	2.91536E-007	5.01565E-007	-2.10029E-007	-1.51000E-001	5.08394E-005	7	...........	-0.01
	89	0.9	-2.18926E-001	-1.38126E-001	-1.78526E-001	3.05538E-007	4.95564E-007	-1.90026E-007	-1.53000E-001	8.39387E-007	7	...........	-0.01
	90	0.91	-2.21126E-001	-1.40226E-001	-1.80676E-001	3.47544E-007	4.55559E-007	-1.08015E-007	-1.55000E-001	5.08394E-005	7	...........	-0.01
	91	0.92	-2.22926E-001	-1.42226E-001	-1.82576E-001	3.91550E-007	4.43557E-007	-5.20071E-008	-1.57000E-001	5.08394E-005	7	...........	-0.01
	92	0.93	-2.25026E-001	-1.44226E-001	-1.84626E-001	4.31555E-007	4.13553E-007	1.80025E-008	-1.59000E-001	1.00839E-004	7	...........	-0.01
	93	0.94	-2.26626E-001	-1.46226E-001	-1.86426E-001	4.93564E-007	3.95550E-007	9.80134E-008	-1.61000E-001	-9.91606E-005	7	...........	-0.01
	94	0.95	-2.28726E-001	-1.48026E-001	-1.88376E-001	5.13566E-007	3.81548E-007	1.32018E-007	-1.63000E-001	8.39387E-007	7	...........	-0.01
	95	0.96	-2.30726E-001	-1.50026E-001	-1.90376E-001	5.61573E-007	3.25541E-007	2.36032E-007	-1.65000E-001	8.39387E-007	7	...........	-0.01
	96	0.97	-2.32926E-001	-1.52126E-001	-1.92526E-001	6.19581E-007	3.19540E-007	3.00041E-007	-1.67000E-001	5.08394E-005	7	...........	-0.01
	97	0.98	-2.34926E-001	-1.54126E-001	-1.94526E-001	6.59586E-007	2.81535E-007	3.78052E-007	-1.69000E-001	-9.91606E-005	7	...........	-0.01
	98	0.99	-2.36726E-001	-1.56126E-001	-1.96426E-001	7.23595E-007	2.59532E-007	4.64063E-007	-1.71000E-001	-9.91606E-005	7	...........	-0.01
	99	1	-2.38726E-001	-1.58226E-001	-1.98476E-001	7.43598E-007	2.41529E-007	5.02068E-007	-1.73000E-001	8.39387E-007	7	...........	-0.01
	100	1.01	-2.40926E-001	-1.60026E-001	-2.00476E-001	8.07607E-007	1.85522E-007	6.22085E-007	-1.75000E-001	8.39387E-007	7	...........	-0.01
	101	1.02	-2.42526E-001	-1.62126E-001	-2.02326E-001	8.61614E-007	1.79521E-007	6.82093E-007	-1.77000E-001	5.08394E-005	7	...........	-0.01
	102	1.03	-2.45026E-001	-1.64126E-001	-2.04576E-001	8.95619E-007	1.49517E-007	7.46102E-007	-1.79000E-001	8.39387E-007	7	...........	-0.01
	103	1.04	-2.46826E-001	-1.65926E-001	-2.06376E-001	9.71629E-007	1.07511E-007	8.64118E-007	-1.81000E-001	8.39387E-007	7	...........	-0.01
	104	1.05	-2.48826E-001	-1.68126E-001	-2.08476E-001	1.00963E-006	9.35092E-008	9.16125E-007	-1.83000E-001	5.08394E-005	7	...........	-0.01
	105	1.06	-2.50726E-001	-1.69926E-001	-2.10326E-001	1.05764E-006	4.55027E-008	1.01214E-006	-1.85000E-001	8.39387E-007	7	...........	-0.01
	106	1.07	-2.52726E-001	-1.72226E-001	-2.12476E-001	1.13165E-006	2.54999E-008	1.10615E-006	-1.87000E-001	5.08394E-005	7	...........	-0.01
	107	1.08	-2.55026E-001	-1.74126E-001	-2.14576E-001	1.16566E-006	-5.03603E-010	1.16616E-006	-1.89000E-001	5.08394E-005	7	...........	-0.01
	108	1.09	-2.56826E-001	-1.75926E-001	-2.16376E-001	1.25367E-006	-4.65099E-008	1.30018E-006	-1.91000E-001	-4.91606E-005	7	...........	-0.01
	109	1.1	-2.58726E-001	-1.78226E-001	-2.18476E-001	1.28367E-006	-6.45123E-008	1.34818E-006	-1.93000E-001	-4.91606E-005	7	...........	-0.01
	110	1.11	-2.60726E-001	-1.80326E-001	-2.20526E-001	1.35168E-006	-1.28521E-007	1.48020E-006	-1.95000E-001	5.08394E-005	7	...........	-0.01
	111	1.12	-2.62726E-001	-1.82126E-001	-2.22426E-001	1.40769E-006	-1.40523E-007	1.54821E-006	-1.97000E-001	5.08394E-005	7	...........	-0.01
	112	1.13	-2.64726E-001	-1.84326E-001	-2.24526E-001	1.43969E-006	-1.60525E-007	1.60022E-006	-1.99000E-001	8.39387E-007	7	...........	-0.01
	113	1.14	-2.66926E-001	-1.86126E-001	-2.26526E-001	1.52570E-006	-2.04531E-007	1.73024E-006	-2.01000E-001	8.39387E-007	7	...........	-0.01
	114	1.15	-2.68726E-001	-1.88026E-001	-2.28376E-001	1.55171E-006	-2.14533E-007	1.76624E-006	-2.03000E-001	8.39387E-007	7	...........	-0.01
	115	1.16	-2.70926E-001	-1.89926E-001	-2.30426E-001	1.62372E-006	-2.70540E-007	1.89426E-006	-2.05000E-001	8.39387E-007	7	...........	-0.01
	116	1.17	-2.72926E-001	-1.92226E-001	-2.32576E-001	1.67572E-006	-2.64540E-007	1.94026E-006	-2.07000E-001	1.00839E-004	7	...........	-0.01
	117	1.18	-2.74726E-001	-1.94326E-001	-2.34526E-001	1.71373E-006	-2.96544E-007	2.01027E-006	-2.09000E-001	5.08394E-005	7	...........	-0.01
	118	1.19	-2.76926E-001	-1.96226E-001	-2.36576E-001	1.79774E-006	-3.28548E-007	2.12629E-006	-2.11000E-001	-9.91606E-005	7	...........	-0.01
	119	1.2	-2.78826E-001	-1.98226E-001	-2.38526E-001	1.84375E-006	-3.52552E-007	2.19630E-006	-2.13000E-001	8.39387E-007	7	...........	-0.01
	120	1.21	-2.80926E-001	-2.00326E-001	-2.40626E-001	1.88775E-006	-3.80555E-007	2.26831E-006	-2.15000E-001	-4.91606E-005	7	...........	-0.01
	121	1.22	-2.82826E-001	-2.02326E-001	-2.42576E-001	1.94576E-006	-3.78555E-007	2.32432E-006	-2.17000E-001	8.39387E-007	7	...........	-0.01
	122	1.23	-2.84726E-001	-2.04226E-001	-2.44476E-001	1.97177E-006	-4.00558E-007	2.37232E-006	-2.19000E-001	-4.91606E-005	7	...........	-0.01
	123	1.24	-2.87226E-001	-2.06126E-001	-2.46676E-001	2.05778E-006	-4.18561E-007	2.47634E-006	-2.21000E-001	8.39387E-007	7	...........	-0.01
	124	1.25	-2.88926E-001	-2.08326E-001	-2.48626E-001	2.08378E-006	-4.16560E-007	2.50034E-006	-2.23000E-001	5.08394E-005	7	...........	-0.01
	125	1.26	-2.90726E-001	-2.10226E-001	-2.50476E-001	2.12979E-006	-4.50565E-007	2.58035E-006	-2.25000E-001	1.00839E-004	7	...........	-0.01
	126	1.27	-2.92726E-001	-2.12326E-001	-2.52526E-001	2.18379E-006	-4.32562E-007	2.61636E-006	-2.27000E-001	8.39387E-007	7	...........	-0.01
	127	1.28	-2.95126E-001	-2.14326E-001	-2.54726E-001	2.20380E-006	-4.28562E-007	2.63236E-006	-2.29000E-001	-4.91606E-005	7	...........	-0.01
	128	1.29	-2.96926E-001	-2.16326E-001	-2.56626E-001	2.26781E-006	-4.38563E-007	2.70637E-006	-2.31000E-001	8.39387E-007	7	...........	-0.01
	129	1.3	-2.98926E-001	-2.18426E-001	-2.58676E-001	2.29981E-006	-4.32562E-007	2.73237E-006	-2.33000E-001	1.00839E-004	7	...........	-0.01
	130	1.31	-3.00826E-001	-2.20126E-001	-2.60476E-001	2.34582E-006	-4.48565E-007	2.79438E-006	-2.35000E-001	5.08394E-005	7	...........	-0.01
	131	1.32	-3.02926E-001	-2.22526E-001	-2.62726E-001	2.39582E-006	-4.16560E-007	2.81238E-006	-2.37000E-001	-4.91606E-005	7	...........	-0.01
	132	1.33	-3.05126E-001	-2.24226E-001	-2.64676E-001	2.40782E-006	-4.06559E-007	2.81438E-006	-2.39000E-001	-4.91606E-005	7	...........	-0.01
	133	1.34	-3.06926E-001	-2.26526E-001	-2.66726E-001	2.48384E-006	-4.08559E-007	2.89239E-006	-2.41000E-001	-4.91606E-005	7	...........	-0.01
	134	1.35	-3.08726E-001	-2.28326E-001	-2.68526E-001	2.48384E-006	-3.72554E-007	2.85639E-006	-2.43000E-001	-4.91606E-005	7	...........	-0.01
	135	1.36	-3.10726E-001	-2.30226E-001	-2.70476E-001	2.53584E-006	-3.78555E-007	2.91440E-006	-2.45000E-001	8.39387E-007	7	...........	-0.01
	136	1.37	-3.12926E-001	-2.32226E-001	-2.72576E-001	2.56385E-006	-3.22547E-007	2.88639E-006	-2.47000E-001	5.08394E-005	7	...........	-0.01
	137	1.38	-3.15026E-001	-2.34326E-001	-2.74676E-001	2.57785E-006	-3.12546E-007	2.89039E-006	-2.49000E-001	-4.91606E-005	7	...........	-0.01
	138	1.39	-3.16726E-001	-2.36326E-001	-2.76526E-001	2.64186E-006	-3.04545E-007	2.94640E-006	-2.51000E-001	8.39387E-007	7	...........	-0.01
	139	1.4	-3.18926E-001	-2.38126E-001	-2.78526E-001	2.64586E-006	-2.44537E-007	2.89039E-006	-2.53000E-001	8.39387E-007	7	...........	-0.01
	140	1.41	-3.21126E-001	-2.40326E-001	-2.80726E-001	2.67986E-006	-2.38536E-007	2.91840E-006	-2.55000E-001	-4.91606E-005	7	...........	-0.01
	141	1.42	-3.23026E-001	-2.42226E-001	-2.82626E-001	2.71387E-006	-1.74527E-007	2.88839E-006	-2.57000E-001	1.00839E-004	7	...........	-0.01
	142	1.43	-3.25126E-001	-2.44126E-001	-2.84626E-001	2.71987E-006	-1.42523E-007	2.86239E-006	-2.59000E-001	8.39387E-007	7	...........	-0.01
	143	1.44	-3.27226E-001	-2.46126E-001	-2.86676E-001	2.76787E-006	-9.85170E-008	2.86639E-006	-2.61000E-001	-4.91606E-005	7	...........	-0.01
	144	1.45	-3.29226E-001	-2.48126E-001	-2.88676E-001	2.76587E-006	-4.25093E-008	2.80838E-006	-2.63000E-001	-4.91606E-005	7	...........	-0.01
	145	1.46	-3.31126E-001	-2.50226E-001	-2.90676E-001	2.79988E-006	-2.45069E-008	2.82438E-006	-2.65000E-001	8.39387E-007	7	...........	-0.01
	146	1.47	-3.33326E-001	-2.52126E-001	-2.92726E-001	2.83788E-006	3.95018E-008	2.79838E-006	-2.67000E-001	8.39387E-007	7	...........	-0.01
	147	1.48	-3.35226E-001	-2.54226E-001	-2.94726E-001	2.83388E-006	9.55095E-008	2.73837E-006	-2.69000E-001	8.39387E-007	7	...........	-0.01
	148	1.49	-3.37426E-001	-2.55926E-001	-2.96676E-001	2.87989E-006	1.51517E-007	2.72837E-006	-2.71000E-001	5.08394E-005	7	...........	-0.01
	149	1.5	-3.38926E-001	-2.58126E-001	-2.98526E-001	2.86989E-006	2.13526E-007	2.65636E-006	-2.73000E-001	8.39387E-007	7	...........	-0.01
	150	1.51	-3.41126E-001	-2.60126E-001	-3.00626E-001	2.88989E-006	2.49530E-007	2.64036E-006	-2.75000E-001	-4.91606E-005	7	...........	-0.01
	151	1.52	-3.43426E-001	-2.62026E-001	-3.02726E-001	2.92590E-006	3.29541E-007	2.59635E-006	-2.77000E-001	8.39391E-007	7	...........	-0.01
	152	1.53	-3.45326E-001	-2.63726E-001	-3.04526E-001	2.91189E-006	3.89550E-007	2.52234E-006	-2.79000E-001	5.08394E-005	7	...........	-0.01
	153	1.54	-3.47426E-001	-2.65926E-001	-3.06676E-001	2.95190E-006	4.41557E-007	2.51034E-006	-2.81000E-001	1.00839E-004	7	...........	-0.01
	154	1.55	-3.49426E-001	-2.68126E-001	-3.08776E-001	2.94790E-006	5.15567E-007	2.43233E-006	-2.83000E-001	5.08394E-005	7	...........	-0.01
	155	1.56	-3.51426E-001	-2.69926E-001	-3.10676E-001	2.95590E-006	5.59573E-007	2.39633E-006	-2.85000E-001	8.39387E-007	7	...........	-0.01
	156	1.57	-3.53526E-001	-2.71826E-001	-3.12676E-001	2.96790E-006	6.45584E-007	2.32232E-006	-2.87000E-001	8.39387E-007	7	...........	-0.01
	157	1.58	-3.55626E-001	-2.73826E-001	-3.14726E-001	2.95790E-006	7.07593E-007	2.25031E-006	-2.89000E-001	-4.91606E-005	7	...........	-0.01
	158	1.59	-3.57626E-001	-2.75826E-001	-3.16726E-001	2.98590E-006	7.71602E-007	2.21430E-006	-2.91000E-001	8.39387E-007	7	...........	-0.01
	159	1.6	-3.59726E-001	-2.77626E-001	-3.18676E-001	2.96790E-006	8.53613E-007	2.11429E-006	-2.93000E-001	8.39387E-007	7	...........	-0.01
	160	1.61	-3.61526E-001	-2.79626E-001	-3.20576E-001	2.97590E-006	8.85617E-007	2.09028E-006	-2.95000E-001	-9.91606E-005	7	...........	-0.01
	161	1.62	-3.63526E-001	-2.81526E-001	-3.22526E-001	2.98190E-006	9.83631E-007	1.99827E-006	-2.97000E-001	1.00839E-004	7	...........	-0.01
	162	1.63	-3.65626E-001	-2.83526E-001	-3.24576E-001	2.96590E-006	1.04964E-006	1.91626E-006	-2.99000E-001	1.00839E-004	7	...........	-0.01
	163	1.64	-3.67626E-001	-2.85626E-001	-3.26626E-001	2.97390E-006	1.10365E-006	1.87025E-006	-3.01000E-001	8.39387E-007	7	...........	-0.01
	164	1.65	-3.69926E-001	-2.87526E-001	-3.28726E-001	2.94790E-006	1.18766E-006	1.76024E-006	-3.03000E-001	-4.91606E-005	7	...........	-0.01
	165	1.66	-3.71926E-001	-2.89326E-001	-3.30626E-001	2.93790E-006	1.23566E-006	1.70223E-006	-3.05000E-001	8.39387E-007	7	...........	-0.01
	166	1.67	-3.73926E-001	-2.91126E-001	-3.32526E-001	2.92790E-006	1.31368E-006	1.61422E-006	-3.07000E-001	8.39387E-007	7	...........	-0.01
	167	1.68	-3.75826E-001	-2.93326E-001	-3.34576E-001	2.88989E-006	1.36768E-006	1.52221E-006	-3.09000E-001	8.39387E-007	7	...........	-0.01
	168	1.69	-3.77926E-001	-2.95426E-001	-3.36676E-001	2.91189E-006	1.43169E-006	1.48020E-006	-3.11000E-001	8.39387E-007	7	...........	-0.01
	169	1.7	-3.80026E-001	-2.97226E-001	-3.38626E-001	2.86189E-006	1.50970E-006	1.35218E-006	-3.13000E-001	8.39387E-007	7	...........	-0.01
	170	1.71	-3.82126E-001	-2.99126E-001	-3.40626E-001	2.84988E-006	1.54571E-006	1.30418E-006	-3.15000E-001	8.39387E-007	7	...........	-0.01
	171	1.72	-3.83926E-001	-3.01326E-001	-3.42626E-001	2.82388E-006	1.62172E-006	1.20216E-006	-3.17000E-001	8.39387E-007	7	...........	-0.01
	172	1.73	-3.85926E-001	-3.03126E-001	-3.44526E-001	2.77387E-006	1.65972E-006	1.11415E-006	-3.19000E-001	8.39387E-007	7	...........	-0.01
	173	1.74	-3.88126E-001	-3.05126E-001	-3.46626E-001	2.78188E-006	1.71173E-006	1.07015E-006	-3.21000E-001	-9.91606E-005	7	...........	-0.01
	174	1.75	-3.90126E-001	-3.07126E-001	-3.48626E-001	2.73387E-006	1.78374E-006	9.50129E-007	-3.23000E-001	5.08394E-005	7	...........	-0.01
	175	1.76	-3.92126E-001	-3.09026E-001	-3.50576E-001	2.68386E-006	1.80774E-006	8.76119E-007	-3.25000E-001	-9.91606E-005	7	...........	-0.01
	176	1.77	-3.94226E-001	-3.10926E-001	-3.52576E-001	2.65386E-006	1.87575E-006	7.78106E-007	-3.27000E-001	8.39387E-007	7	...........	-0.01
	177	1.78	-3.96126E-001	-3.13026E-001	-3.54576E-001	2.58185E-006	1.92976E-006	6.52089E-007	-3.29000E-001	-4.91606E-005	7	...........	-0.01
	178	1.79	-3.98326E-001	-3.14826E-001	-3.56576E-001	2.56985E-006	1.96576E-006	6.04082E-007	-3.31000E-001	5.08394E-005	7	...........	-0.01
	179	1.8	-4.00326E-001	-3.16726E-001	-3.58526E-001	2.50584E-006	2.02377E-006	4.82066E-007	-3.33000E-001	1.00839E-004	7	...........	-0.01
	180	1.81	-4.02526E-001	-3.18726E-001	-3.60626E-001	2.46383E-006	2.03977E-006	4.24058E-007	-3.35000E-001	-4.91606E-005	7	...........	-0.01
	181	1.82	-4.04326E-001	-3.20926E-001	-3.62626E-001	2.42383E-006	2.09778E-006	3.26045E-007	-3.37000E-001	5.08394E-005	7	...........	-0.01
	182	1.83	-4.06526E-001	-3.22826E-001	-3.64676E-001	2.35582E-006	2.12979E-006	2.26031E-007	-3.39000E-001	-4.91606E-005	7	...........	-0.01
	183	1.84	-4.08326E-001	-3.24726E-001	-3.66526E-001	2.34382E-006	2.15179E-006	1.92026E-007	-3.41000E-001	5.08394E-005	7	...........	-0.01
	184	1.85	-4.10426E-001	-3.26726E-001	-3.68576E-001	2.28181E-006	2.21580E-006	6.60089E-008	-3.43000E-001	8.39387E-007	7	...........	-0.01
	185	1.86	-4.12426E-001	-3.28826E-001	-3.70626E-001	2.22780E-006	2.22380E-006	4.00041E-009	-3.45000E-001	8.39387E-007	7	...........	-0.01
	186	1.87	-4.14326E-001	-3.30726E-001	-3.72526E-001	2.20180E-006	2.27181E-006	-7.00095E-008	-3.47000E-001	8.39387E-007	7	...........	-0.01
	187	1.88	-4.16726E-001	-3.32926E-001	-3.74826E-001	2.13579E-006	2.29781E-006	-1.62022E-007	-3.49000E-001	5.08394E-005	7	...........	-0.01
	188	1.89	-4.18526E-001	-3.35026E-001	-3.76776E-001	2.12379E-006	2.32181E-006	-1.98027E-007	-3.51000E-001	5.08394E-005	7	...........	-0.01
	189	1.9	-4.20526E-001	-3.36726E-001	-3.78626E-001	2.07378E-006	2.37182E-006	-2.98041E-007	-3.53000E-001	8.39387E-007	7	...........	-0.01
	190	1.91	-4.22626E-001	-3.38626E-001	-3.80626E-001	2.03777E-006	2.37182E-006	-3.34045E-007	-3.55000E-001	5.08394E-005	7	...........	-0.01
	191	1.92	-4.24626E-001	-3.40426E-001	-3.82526E-001	2.01377E-006	2.41783E-006	-4.04055E-007	-3.57000E-001	8.39387E-007	7	...........	-0.01
	192	1.93	-4.26526E-001	-3.42726E-001	-3.84626E-001	1.96776E-006	2.45383E-006	-4.86066E-007	-3.59000E-001	5.08394E-005	7	...........	-0.01
	193	1.94	-4.28426E-001	-3.44626E-001	-3.86526E-001	1.96376E-006	2.46583E-006	-5.02068E-007	-3.61000E-001	5.08394E-005	7	...........	-0.01
	194	1.95	-4.30326E-001	-3.46626E-001	-3.88476E-001	1.92976E-006	2.51184E-006	-5.82079E-007	-3.63000E-001	-9.91606E-005	7	...........	-0.01
	195	1.96	-4.32626E-001	-3.48626E-001	-3.90626E-001	1.91176E-006	2.51784E-006	-6.06083E-007	-3.65000E-001	-4.91606E-005	7	...........	-0.01
	196	1.97	-4.34626E-001	-3.50326E-001	-3.92476E-001	1.90576E-006	2.57585E-006	-6.70091E-007	-3.67000E-001	8.39387E-007	7	...........	-0.01
	197	1.98	-4.36526E-001	-3.52326E-001	-3.94426E-001	1.84975E-006	2.60185E-006	-7.52103E-007	-3.69000E-001	8.39387E-007	7	...........	-0.01
	198	1.99	-4.38426E-001	-3.54626E-001	-3.96526E-001	1.88575E-006	2.61785E-006	-7.32100E-007	-3.71000E-001	-4.91606E-005	7	...........	-0.01
	199	2	-4.40526E-001	-3.56426E-001	-3.98476E-001	1.84775E-006	2.68186E-006	-8.34114E-007	-3.73000E-001	5.08394E-005	7	...........	-0.01
	200	2.01	-4.42826E-001	-3.58526E-001	-4.00676E-001	1.84775E-006	2.68386E-006	-8.36114E-007	-3.75000E-001	8.39387E-007	7	...........	-0.01
	201	2.02	-4.44526E-001	-3.60326E-001	-4.02426E-001	1.85975E-006	2.72587E-006	-8.66118E-007	-3.77000E-001	5.08394E-005	7	...........	-0.01
	202	2.03	-4.46326E-001	-3.62426E-001	-4.04376E-001	1.83775E-006	2.75787E-006	-9.20125E-007	-3.79000E-001	8.39387E-007	7	...........	-0.01
	203	2.04	-4.48626E-001	-3.64526E-001	-4.06576E-001	1.86975E-006	2.79188E-006	-9.22126E-007	-3.81000E-001	8.39387E-007	7	...........	-0.01
	204	2.05	-4.50726E-001	-3.66326E-001	-4.08526E-001	1.85175E-006	2.85589E-006	-1.00414E-006	-3.83000E-001	5.08394E-005	7	...........	-0.01
	205	2.06	-4.52626E-001	-3.68326E-001	-4.10476E-001	1.87375E-006	2.85589E-006	-9.82134E-007	-3.85000E-001	8.39387E-007	7	...........	-0.01
	206	2.07	-4.54526E-001	-3.70126E-001	-4.12326E-001	1.87775E-006	2.90989E-006	-1.03214E-006	-3.87000E-001	8.39387E-007	7	...........	-0.01
	207	2.08	-4.56726E-001	-3.72326E-001	-4.14526E-001	1.87775E-006	2.94990E-006	-1.07215E-006	-3.89000E-001	5.08394E-005	7	...........	-0.01
	208	2.09	-4.58826E-001	-3.74326E-001	-4.16576E-001	1.91176E-006	2.97390E-006	-1.06214E-006	-3.91000E-001	8.39387E-007	7	...........	-0.01
	209	2.1	-4.60726E-001	-3.76526E-001	-4.18626E-001	1.90976E-006	3.03591E-006	-1.12615E-006	-3.93000E-001	8.39387E-007	7	...........	-0.01
	210	2.11	-4.62726E-001	-3.78426E-001	-4.20576E-001	1.92376E-006	3.04791E-006	-1.12415E-006	-3.95000E-001	5.08394E-005	7	...........	-0.01
	211	2.12	-4.64726E-001	-3.80326E-001	-4.22526E-001	1.95576E-006	3.10792E-006	-1.15216E-006	-3.97000E-001	-4.91606E-005	7	...........	-0.01
	212	2.13	-4.66626E-001	-3.82326E-001	-4.24476E-001	1.96176E-006	3.14392E-006	-1.18216E-006	-3.99000E-001	8.39387E-007	7	...........	-0.01
	213	2.14	-4.68626E-001	-3.84326E-001	-4.26476E-001	2.00177E-006	3.17993E-006	-1.17816E-006	-4.01000E-001	8.39387E-007	7	...........	-0.01
	214	2.15	-4.70726E-001	-3.86426E-001	-4.28576E-001	2.00977E-006	3.23594E-006	-1.22617E-006	-4.03000E-001	-9.91606E-005	7	...........	-0.01
	215	2.16	-4.72326E-001	-3.88126E-001	-4.30226E-001	2.03977E-006	3.25394E-006	-1.21417E-006	-4.05000E-001	8.39387E-007	7	...........	-0.01
	216	2.17	-4.74626E-001	-3.90126E-001	-4.32376E-001	2.07378E-006	3.31195E-006	-1.23817E-006	-4.07000E-001	8.39387E-007	7	...........	-0.01
	217	2.18	-4.76626E-001	-3.92326E-001	-4.34476E-001	2.06978E-006	3.36796E-006	-1.29818E-006	-4.09000E-001	1.50839E-004	7	...........	-0.01
	218	2.19	-4.78726E-001	-3.94226E-001	-4.36476E-001	2.12379E-006	3.39396E-006	-1.27017E-006	-4.11000E-001	-9.91606E-005	7	...........	-0.01
	219	2.2	-4.80826E-001	-3.96026E-001	-4.38426E-001	2.12979E-006	3.46197E-006	-1.33218E-006	-4.13000E-001	8.39387E-007	7	...........	-0.01
	220	2.21	-4.82926E-001	-3.98026E-001	-4.40476E-001	2.15579E-006	3.48597E-006	-1.33018E-006	-4.15000E-001	5.08394E-005	7	...........	-0.01
	221	2.22	-4.84726E-001	-4.00326E-001	-4.42526E-001	2.20780E-006	3.53998E-006	-1.33218E-006	-4.17000E-001	5.08394E-005	7	...........	-0.01
	222	2.23	-4.87026E-001	-4.01926E-001	-4.44476E-001	2.20780E-006	3.60199E-006	-1.39419E-006	-4.19000E-001	1.00839E-004	7	...........	-0.01
	223	2.24	-4.88926E-001	-4.04126E-001	-4.46526E-001	2.25780E-006	3.63799E-006	-1.38019E-006	-4.21000E-001	-4.91606E-005	7	...........	-0.01
	224	2.25	-4.90726E-001	-4.06126E-001	-4.48426E-001	2.27581E-006	3.70200E-006	-1.42619E-006	-4.23000E-001	8.39387E-007	7	...........	-0.01
	225	2.26	-4.92726E-001	-4.07926E-001	-4.50326E-001	2.31181E-006	3.72600E-006	-1.41419E-006	-4.25000E-001	8.39387E-007	7	...........	-0.01
	226	2.27	-4.94926E-001	-4.10226E-001	-4.52576E-001	2.35382E-006	3.78801E-006	-1.43420E-006	-4.27000E-001	-1.49161E-004	7	...........	-0.01
	227	2.28	-4.97026E-001	-4.12026E-001	-4.54526E-001	2.37582E-006	3.84402E-006	-1.46820E-006	-4.29000E-001	5.08394E-005	7	...........	-0.01
	228	2.29	-4.98726E-001	-4.14026E-001	-4.56376E-001	2.43783E-006	3.85402E-006	-1.41619E-006	-4.31000E-001	5.08394E-005	7	...........	-0.01
	229	2.3	-5.00926E-001	-4.15926E-001	-4.58426E-001	2.46783E-006	3.94403E-006	-1.47620E-006	-4.33000E-001	5.08394E-005	7	...........	-0.01
	230	2.31	-5.02826E-001	-4.17926E-001	-4.60376E-001	2.49184E-006	3.96404E-006	-1.47220E-006	-4.35000E-001	-4.91606E-005	7	...........	-0.01
	231	2.32	-5.04726E-001	-4.20026E-001	-4.62376E-001	2.54784E-006	4.03605E-006	-1.48820E-006	-4.37000E-001	5.08394E-005	7	...........	-0.01
	232	2.33	-5.06926E-001	-4.21826E-001	-4.64376E-001	2.57785E-006	4.09405E-006	-1.51621E-006	-4.39000E-001	5.08394E-005	7	...........	-0.01
	233	2.34	-5.08726E-001	-4.23926E-001	-4.66326E-001	2.63786E-006	4.12206E-006	-1.48420E-006	-4.41000E-001	5.08394E-005	7	...........	-0.01
	234	2.35	-5.11126E-001	-4.25926E-001	-4.68526E-001	2.66786E-006	4.20207E-006	-1.53421E-006	-4.43000E-001	5.08394E-005	7	...........	-0.01
	235	2.36	-5.12826E-001	-4.28026E-001	-4.70426E-001	2.71387E-006	4.22807E-006	-1.51421E-006	-4.45000E-001	8.39387E-007	7	...........	-0.01
	236	2.37	-5.14726E-001	-4.29726E-001	-4.72226E-001	2.76787E-006	4.30208E-006	-1.53421E-006	-4.47000E-001	8.39387E-007	7	...........	-0.01
	237	2.38	-5.16726E-001	-4.31726E-001	-4.74226E-001	2.79188E-006	4.34609E-006	-1.55421E-006	-4.49000E-001	-9.91606E-005	7	...........	-0.01
	238	2.39	-5.18726E-001	-4.33726E-001	-4.76226E-001	2.87989E-006	4.39610E-006	-1.51621E-006	-4.51000E-001	8.39387E-007	7	...........	-0.01
	239	2.4	-5.20926E-001	-4.36026E-001	-4.78476E-001	2.90789E-006	4.46010E-006	-1.55221E-006	-4.53000E-001	1.00839E-004	7	...........	-0.01
	240	2.41	-5.22926E-001	-4.37726E-001	-4.80326E-001	2.96990E-006	4.47811E-006	-1.50821E-006	-4.55000E-001	8.39387E-007	7	...........	-0.01
	241	2.42	-5.24726E-001	-4.39926E-001	-4.82326E-001	3.03791E-006	4.54812E-006	-1.51021E-006	-4.57000E-001	5.08394E-005	7	...........	-0.01
	242	2.43	-5.27026E-001	-4.41826E-001	-4.84426E-001	3.06991E-006	4.60012E-006	-1.53021E-006	-4.59000E-001	1.00839E-004	7	...........	-0.01
	243	2.44	-5.28926E-001	-4.44026E-001	-4.86476E-001	3.16593E-006	4.65013E-006	-1.48420E-006	-4.61000E-001	-4.91606E-005	7	...........	-0.01
	244	2.45	-5.31026E-001	-4.45626E-001	-4.88326E-001	3.20993E-006	4.71814E-006	-1.50821E-006	-4.63000E-001	-4.91606E-005	7	...........	-0.01
	245	2.46	-5.33026E-001	-4.47726E-001	-4.90376E-001	3.26594E-006	4.75014E-006	-1.48420E-006	-4.65000E-001	-4.91606E-005	7	...........	-0.01
	246	2.47	-5.34826E-001	-4.49726E-001	-4.92276E-001	3.35395E-006	4.81015E-006	-1.45620E-006	-4.67000E-001	-4.91606E-005	7	...........	-0.01
	247	2.48	-5.36926E-001	-4.51726E-001	-4.94326E-001	3.41196E-006	4.85416E-006	-1.44220E-006	-4.69000E-001	8.39387E-007	7	...........	-0.01
	248	2.49	-5.39026E-001	-4.53726E-001	-4.96376E-001	3.51398E-006	4.90016E-006	-1.38619E-006	-4.71000E-001	8.39387E-007	7	...........	-0.01
	249	2.5	-5.40726E-001	-4.55726E-001	-4.98226E-001	3.56598E-006	4.96017E-006	-1.39419E-006	-4.73000E-001	8.39387E-007	7	...........	-0.01
	250	2.51	-5.43126E-001	-4.57526E-001	-5.00326E-001	3.63599E-006	4.98818E-006	-1.35218E-006	-4.75000E-001	5.08394E-005	7	...........	-0.01
EXPERIMENTABORTED	TOGGLE	T	Experiment Aborted
